 # group, group center (Hz), analytic sol. (erg/cm^3/Hz), analytic sol. * group width (erg/cm^3), ambient BB spectrum (erg/cm^3/Hz)
   1     0.1350974947E+15      40.77205265         0.1356200679E-11
   2     0.1686914815E+15      79.26756238         0.2111596955E-11
   3     0.2106391092E+15      154.0556689         0.3286603785E-11
   4     0.2630176338E+15      299.2756716         0.5113228772E-11
   5     0.3284208520E+15      581.0713872         0.7950738021E-11
   6     0.4100875462E+15      1127.438294         0.1235449158E-10
   7     0.5120618696E+15      2185.682893         0.1918109480E-10
   8     0.6393936143E+15      4232.720300         0.2974814933E-10
   9     0.7983882773E+15      8186.026449         0.4607524659E-10
  10     0.9969193110E+15      15805.22860         0.7124418939E-10
  11     0.1244818018E+16      30452.08694         0.1099309223E-09
  12     0.1554360398E+16      58517.76136         0.1691783002E-09
  13     0.1940875061E+16      112076.8463         0.2594938077E-09
  14     0.2423502303E+16      213758.9903         0.3963598260E-09
  15     0.3026141935E+16      405538.1620         0.6022143653E-09
  16     0.3778636809E+16      764223.9979         0.9088541542E-09
  17     0.4718250644E+16      1427892.495         0.1359950745E-08
  18     0.5891513334E+16      2638906.725         0.2012824228E-08
  19     0.7356525115E+16      4809034.045         0.2937607755E-08
  20     0.9185833706E+16      8606412.289         0.4210292267E-08
  21     0.1147002689E+17      15043983.60         0.5893958744E-08
  22     0.1432221844E+17      25499696.59         0.8000799670E-08
  23     0.1788364952E+17      41506230.10         0.1042955589E-07
  24     0.2233068303E+17      64033282.66         0.1288583113E-07
  25     0.2788353709E+17      91994536.77         0.1482596085E-07
  26     0.3481719030E+17      120224349.7         0.1551698684E-07
  27     0.4347499876E+17      138598181.3         0.1432605551E-07
  28     0.5428569912E+17      135524656.4         0.1121867472E-07
  29     0.6778463976E+17      107051252.1         0.7096907345E-08
  30     0.8464029130E+17      64370209.80         0.3417562389E-08
  31     0.1056873495E+18      27421452.04         0.1165939775E-08
  32     0.1319680694E+18      7581542.625         0.2581650180E-09
  33     0.1647838785E+18      1221028.179         0.3329811453E-10
  34     0.2057598229E+18      100132.0006         0.2186860056E-11
  35     0.2569250410E+18      3535.205444         0.6183251324E-13
  36     0.3208132461E+18      43.76002082         0.6129624984E-15
  37     0.4005881966E+18     0.1443135635         0.1618891261E-17
  38     0.5002003665E+18     0.9264603964E-04     0.8323222983E-21
  39     0.6245825733E+18     0.7665817177E-08     0.5515403255E-25
  40     0.7798942524E+18     0.4912554716E-13     0.2830612090E-30
  41     0.9738264737E+18     0.4167331059E-02     0.1923025763E-19
  42     0.1215982805E+19      174357.8627         0.6443514043E-12
  43     0.1518354884E+19      1425083406.         0.4217699836E-08
  44     0.1895916245E+19     0.1279125827E+12     0.3031815692E-06
  45     0.2367363814E+19     0.9690431308E+12     0.1839444881E-05
  46     0.2956043781E+19     0.1699874828E+13     0.2584132376E-05
  47     0.3691107714E+19     0.1104828299E+13     0.1345075762E-05
  48     0.4608956148E+19     0.3188968498E+12     0.3109254916E-06
  49     0.5755041147E+19     0.4163458926E+11     0.3250981722E-07
  50     0.7186117103E+19      2263193693.         0.1415259603E-08
  51     0.8973051226E+19      43778127.40         0.2192429869E-10
  52     0.1120433290E+20      241030.0752         0.9667048745E-13
  53     0.1399045572E+20      281.7771694         0.9050709326E-16
  54     0.1746938911E+20     0.4814381666E-01     0.1238430030E-19
  55     0.2181341065E+20     0.7508258310E-06     0.1546764894E-24
  56     0.2723763729E+20     0.5922600358E-12     0.9771284820E-31
  57     0.3401067798E+20     0.1128806670E-19     0.1491464615E-38
  58     0.4246793523E+20     0.2064370811E-29     0.2184415451E-48
  59     0.5302821438E+20     0.1142644138E-41     0.9683061028E-61
  60     0.6621446287E+20     0.4529725864E-57     0.3074168976E-76
